time_AU,intensity,intensity_smoothed
0.0,0.0,0.0
0.0008333333457509677,0.0,0.0
0.0016666666915019352,-4.999999873689376e-06,-4.999999873689376e-06
0.002500000037252903,-9.999999747378752e-06,-9.999999747378752e-06
0.0033333333830038708,-1.4799999917158855e-05,-1.4799999917158855e-05
0.004166666728754838,-1.9400000383029692e-05,-1.9400000383029692e-05
0.005000000074505806,-2.3900000087451186e-05,-2.3900000087451186e-05
0.005833333420256773,-2.8200000087963417e-05,-2.8200000087963417e-05
0.0066666667660077415,-3.229999856557697e-05,-3.229999856557697e-05
0.007500000111758709,-3.619999915827066e-05,-3.619999915827066e-05
0.008333333457509676,-3.9999998989515007e-05,-3.9999998989515007e-05
0.009166666803260644,-4.3700001697288826e-05,-4.3700001697288826e-05
0.010000000149011612,-4.709999848273582e-05,-4.709999848273582e-05
0.01083333349476258,-5.049999890616163e-05,-5.049999890616163e-05
0.011666666840513547,-5.370000144466758e-05,-5.370000144466758e-05
0.012500000186264513,-5.669999882229604e-05,-5.669999882229604e-05
0.013333333532015485,-5.9699999837903306e-05,-5.9699999837903306e-05
0.014166666877766448,-6.25000029685907e-05,-6.25000029685907e-05
0.015000000223517416,-6.520000169984996e-05,-6.520000169984996e-05
0.015833333569268384,-6.779999966965988e-05,-6.779999966965988e-05
0.016666666915019352,-7.029999687802047e-05,-7.029999687802047e-05
0.01750000026077032,-7.270000060088933e-05,-7.270000060088933e-05
0.01833333360652129,-7.509999704780057e-05,-7.509999704780057e-05
0.019166666952272256,-7.74000000092201e-05,-7.74000000092201e-05
0.020000000298023225,-7.960000220919027e-05,-7.960000220919027e-05
0.020833333643774193,-8.179999713320285e-05,-8.179999713320285e-05
0.02166666698952516,-8.399999933317304e-05,-8.399999933317304e-05
0.022500000335276125,-8.620000153314322e-05,-8.620000153314322e-05
0.023333333681027094,-8.830000297166406e-05,-8.830000297166406e-05
0.02416666702677806,-9.049999789567664e-05,-9.049999789567664e-05
0.025000000372529026,-9.259999933419749e-05,-9.259999933419749e-05
0.025833333718279995,-9.480000153416768e-05,-9.480000153416768e-05
0.02666666706403097,-9.709999721962959e-05,-9.709999721962959e-05
0.027500000409781938,-9.929999941959976e-05,-9.929999941959976e-05
0.028333333755532895,-0.00010160000238101928,-0.00010160000238101928
0.029166667101283867,-0.0001038999980664812,-0.0001038999980664812
0.030000000447034835,-0.0001064000025507994,-0.0001064000025507994
0.030833333792785803,-0.00010879999899771065,-0.00010879999899771065
0.03166666713853677,-0.00011139999696752056,-0.00011139999696752056
0.032500000484287736,-0.00011400000221328809,-0.00011400000221328809
0.033333333830038704,-0.00011680000170599668,-0.00011680000170599668
0.03416666717578967,-0.00011960000119870529,-0.00011960000119870529
0.03500000052154064,-0.0001225000014528632,-0.0001225000014528632
0.03583333386729161,-0.0001255999959539622,-0.0001255999959539622
0.03666666721304258,-0.00012870000500697643,-0.00012870000500697643
0.037500000558793545,-0.0001320000010309741,-0.0001320000010309741
0.03833333390454451,-0.0001353999978164211,-0.0001353999978164211
0.03916666725029548,-0.00013889999536331743,-0.00013889999536331743
0.04000000059604645,-0.0001424999936716631,-0.0001424999936716631
0.04083333394179742,-0.00014629999350290743,-0.00014629999350290743
0.041666667287548385,-0.00015019999409560114,-0.00015019999409560114
0.042500000633299354,-0.0001542999962111935,-0.0001542999962111935
0.04333333397905032,-0.00015839999832678586,-0.00015839999832678586
0.04416666732480128,-0.00016280000272672623,-0.00016280000272672623
0.04500000067055225,-0.0001672000071266666,-0.0001672000071266666
0.04583333401630322,-0.00017179999849759042,-0.00017179999849759042
0.04666666736205419,-0.00017660000594332814,-0.00017660000594332814
0.047500000707805155,-0.00018139999883715063,-0.00018139999883715063
0.04833333405355612,-0.0001864999940153211,-0.0001864999940153211
0.049166667399307085,-0.0001916000037454069,-0.0001916000037454069
0.05000000074505805,-0.00019679999968502673,-0.00019679999968502673
0.05083333409080902,-0.0002021999971475452,-0.0002021999971475452
0.05166666743655999,-0.00020769999537151304,-0.00020769999537151304
0.05250000078231096,-0.00021329999435693023,-0.00021329999435693023
0.05333333412806194,-0.0002189999941037968,-0.0002189999941037968
0.05416666747381289,-0.00022489999537356195,-0.00022489999537356195
0.055000000819563875,-0.00023079999664332715,-0.00023079999664332715
0.05583333416531483,-0.0002367999986745417,-0.0002367999986745417
0.0566666675110658,-0.00024300000222865492,-0.00024300000222865492
0.057500000856816766,-0.0002493000065442174,-0.0002493000065442174
0.058333334202567734,-0.0002555999963078648,-0.0002555999963078648
0.0591666675483187,-0.00026199998683296144,-0.00026199998683296144
0.06000000089406967,-0.0002685000072233379,-0.0002685000072233379
0.06083333423982064,-0.0002750999992713332,-0.0002750999992713332
0.061666667585571606,-0.0002817999920807779,-0.0002817999920807779
0.06250000093132257,-0.000288500013994053,-0.000288500013994053
0.06333333427707354,-0.00029520000680349767,-0.00029520000680349767
0.06416666762282451,-0.0003020000003743917,-0.0003020000003743917
0.06500000096857547,-0.000308899994706735,-0.000308899994706735
0.06583333431432645,-0.00031579998903907835,-0.00031579998903907835
0.06666666766007741,-0.0003226000117138028,-0.0003226000117138028
0.06750000100582838,-0.0003296000068075955,-0.0003296000068075955
0.06833333435157934,-0.00033650000113993883,-0.00033650000113993883
0.06916666769733032,-0.00034339999547228217,-0.00034339999547228217
0.07000000104308128,-0.0003502999898046255,-0.0003502999898046255
0.07083333438883226,-0.00035710001247934997,-0.00035710001247934997
0.07166666773458322,-0.00036400000681169326,-0.00036400000681169326
0.07250000108033419,-0.00037080000038258726,-0.00037080000038258726
0.07333333442608515,-0.000377499993192032,-0.000377499993192032
0.07416666777183613,-0.000384299986762926,-0.000384299986762926
0.07500000111758709,-0.00039090000791475177,-0.00039090000791475177
0.07583333446333805,-0.0003976000007241964,-0.0003976000007241964
0.07666666780908903,-0.0004040999920107424,-0.0004040999920107424
0.07750000115483999,-0.0004106000124011189,-0.0004106000124011189
0.07833333450059096,-0.00041710000368766487,-0.00041710000368766487
0.07916666784634192,-0.0004233999934513122,-0.0004233999934513122
0.0800000011920929,-0.0004297000123187899,-0.0004297000123187899
0.08083333453784386,-0.00043590000132098794,-0.00043590000132098794
0.08166666788359483,-0.0004419999895617366,-0.0004419999895617366
0.0825000012293458,-0.0004480000061448663,-0.0004480000061448663
0.08333333457509677,-0.0004538999928627163,-0.0004538999928627163
0.08416666792084773,-0.00045970000792294735,-0.00045970000792294735
0.08500000126659871,-0.0004653999931178987,-0.0004653999931178987
0.08583333461234967,-0.0004710000066552311,-0.0004710000066552311
0.08666666795810064,-0.0004763999895658344,-0.0004763999895658344
0.0875000013038516,-0.00048180000158026814,-0.00048180000158026814
0.08833333464960257,-0.0004870000120718032,-0.0004870000120718032
0.08916666799535354,-0.0004922000225633383,-0.0004922000225633383
0.0900000013411045,-0.0004972000024281442,-0.0004972000024281442
0.09083333468685549,-0.0005020999815315008,-0.0005020999815315008
0.09166666803260645,-0.000506900018081069,-0.000506900018081069
0.09250000137835741,-0.0005115999956615269,-0.0005115999956615269
0.09333333472410837,-0.0005161999724805355,-0.0005161999724805355
0.09416666806985935,-0.0005207000067457557,-0.0005207000067457557
0.09500000141561032,-0.0005250999820418656,-0.0005250999820418656
0.09583333476136129,-0.0005294000147841871,-0.0005294000147841871
0.09666666810711225,-0.0005335999885573983,-0.0005335999885573983
0.09750000145286322,-0.0005377000197768211,-0.0005377000197768211
0.09833333479861417,-0.000541799992788583,-0.000541799992788583
0.09916666814436517,-0.0005457000224851072,-0.0005457000224851072
0.10000000149011612,-0.0005495999939739704,-0.0005495999939739704
0.10083333483586708,-0.0005534000229090452,-0.0005534000229090452
0.10166666818161804,-0.0005571999936364591,-0.0005571999936364591
0.102500001527369,-0.0005608000210486352,-0.0005608000210486352
0.10333333487312,-0.0005644999910145998,-0.0005644999910145998
0.10416666821887095,-0.0005680000176653266,-0.0005680000176653266
0.10500000156462191,-0.0005714999861083925,-0.0005714999861083925
0.10583333491037288,-0.0005750000127591193,-0.0005750000127591193
0.10666666825612386,-0.0005784999812021852,-0.0005784999812021852
0.10750000160187483,-0.0005819000070914626,-0.0005819000070914626
0.1083333349476258,-0.0005851999740116298,-0.0005851999740116298
0.10916666829337676,-0.0005885999999009073,-0.0005885999999009073
0.11000000163912772,-0.0005920000257901847,-0.0005920000257901847
0.11083333498487868,-0.0005952999927103519,-0.0005952999927103519
0.11166666833062967,-0.0005987000185996294,-0.0005987000185996294
0.11250000167638063,-0.000602099986281246,-0.000602099986281246
0.1133333350221316,-0.0006055000121705234,-0.0006055000121705234
0.11416666836788256,-0.00060889997985214,-0.00060889997985214
0.11500000171363352,-0.0006123000057414174,-0.0006123000057414174
0.1158333350593845,-0.000615699973423034,-0.000615699973423034
0.11666666840513545,-0.0006192000000737607,-0.0006192000000737607
0.11750000175088644,-0.0006227000267244875,-0.0006227000267244875
0.1183333350966374,-0.0006261999951675534,-0.0006261999951675534
0.11916666844238837,-0.0006298000225797296,-0.0006298000225797296
0.12000000178813934,-0.0006334999925456941,-0.0006334999925456941
0.12083333513389032,-0.0006371000199578702,-0.0006371000199578702
0.12166666847964128,-0.0006408999906852841,-0.0006408999906852841
0.12250000182539224,-0.0006446000188589096,-0.0006446000188589096
0.1233333351711432,-0.0006484999903477728,-0.0006484999903477728
0.12416666851689417,-0.000652400020044297,-0.000652400020044297
0.12500000186264515,-0.0006563999922946095,-0.0006563999922946095
0.12583333520839612,-0.000660400022752583,-0.000660400022752583
0.12666666855414707,-0.0006644999957643449,-0.0006644999957643449
0.12750000189989805,-0.0006687000277452171,-0.0006687000277452171
0.12833333524564902,-0.0006729000015184283,-0.0006729000015184283
0.1291666685914,-0.0006772999768145382,-0.0006772999768145382
0.13000000193715094,-0.0006817000103183091,-0.0006817000103183091
0.13083333528290192,-0.0006861999863758683,-0.0006861999863758683
0.13166666862865287,-0.0006907000206410885,-0.0006907000206410885
0.13250000197440387,-0.0006953999982215464,-0.0006953999982215464
0.1333333353201548,-0.0007000999758020043,-0.0007000999758020043
0.1341666686659058,-0.0007049000123515725,-0.0007049000123515725
0.13500000201165677,-0.0007096999906934798,-0.0007096999906934798
0.13583333535740774,-0.0007146000280044973,-0.0007146000280044973
0.1366666687031587,-0.0007196000078693032,-0.0007196000078693032
0.13750000204890966,-0.0007245999877341092,-0.0007245999877341092
0.13833333539466064,-0.000729600025806576,-0.000729600025806576
0.1391666687404116,-0.0007348000071942806,-0.0007348000071942806
0.14000000208616256,-0.0007398999878205358,-0.0007398999878205358
0.1408333354319135,-0.0007451000274159014,-0.0007451000274159014
0.1416666687776645,-0.0007504000095650554,-0.0007504000095650554
0.14250000212341543,-0.00075559999095276,-0.00075559999095276
0.14333333546916643,-0.0007608999731019139,-0.0007608999731019139
0.1441666688149174,-0.0007662000134587288,-0.0007662000134587288
0.14500000216066838,-0.000771599996369332,-0.000771599996369332
0.14583333550641933,-0.0007768999785184861,-0.0007768999785184861
0.1466666688521703,-0.0007822000188753008,-0.0007822000188753008
0.14750000219792128,-0.0007875000010244548,-0.0007875000010244548
0.14833333554367223,-0.0007928999839350581,-0.0007928999839350581
0.1491666688894232,-0.0007981000235304236,-0.0007981000235304236
0.15000000223517415,-0.0008034000056795776,-0.0008034000056795776
0.15083333558092515,-0.0008085999870672822,-0.0008085999870672822
0.1516666689266761,-0.0008138000266626477,-0.0008138000266626477
0.15250000227242708,-0.000818900007288903,-0.000818900007288903
0.15333333561817805,-0.0008238999871537089,-0.0008238999871537089
0.15416666896392903,-0.0008289000252261759,-0.0008289000252261759
0.15500000230967995,-0.000833700003568083,-0.000833700003568083
0.15583333565543095,-0.0008384999819099902,-0.0008384999819099902
0.15666666900118192,-0.0008432000176981091,-0.0008432000176981091
0.15750000234693287,-0.0008476999937556685,-0.0008476999937556685
0.15833333569268385,-0.0008522000280208887,-0.0008522000280208887
0.15916666903843482,-0.0008565000025555491,-0.0008565000025555491
0.1600000023841858,-0.0008606999763287603,-0.0008606999763287603
0.16083333572993677,-0.000864700006786734,-0.000864700006786734
0.16166666907568772,-0.0008685999782755971,-0.0008685999782755971
0.16250000242143867,-0.0008723000064492226,-0.0008723000064492226
0.16333333576718967,-0.0008758999756537378,-0.0008758999756537378
0.1641666691129406,-0.0008793000015430152,-0.0008793000015430152
0.1650000024586916,-0.0008826000266708434,-0.0008826000266708434
0.16583333580444257,-0.0008856999920681118,-0.0008856999920681118
0.16666666915019354,-0.0008886000141501427,-0.0008886000141501427
0.1675000024959445,-0.0008913999772630632,-0.0008913999772630632
0.16833333584169546,-0.000893999997060746,-0.000893999997060746
0.16916666918744644,-0.0008965000160969794,-0.0008965000160969794
0.1700000025331974,-0.0008986999746412039,-0.0008986999746412039
0.17083333587894836,-0.0009008999913930893,-0.0009008999913930893
0.1716666692246993,-0.000902900006622076,-0.000902900006622076
0.1725000025704503,-0.000904700020328164,-0.000904700020328164
0.1733333359162013,-0.0009063999750651421,-0.0009063999750651421
0.17416666926195223,-0.0009079999872483312,-0.0009079999872483312
0.1750000026077032,-0.000909399997908622,-0.000909399997908622
0.17583333595345418,-0.0009107000078074634,-0.0009107000078074634
0.17666666929920513,-0.0009119000169448556,-0.0009119000169448556
0.1775000026449561,-0.0009129000245593488,-0.0009129000245593488
0.17833333599070708,-0.0009138999739661813,-0.0009138999739661813
0.17916666933645803,-0.0009147999808192253,-0.0009147999808192253
0.180000002682209,-0.00091559998691082,-0.00091559998691082
0.18083333602795995,-0.0009162999922409653,-0.0009162999922409653
0.18166666937371095,-0.0009169999975711108,-0.0009169999975711108
0.18250000271946193,-0.0009176000021398069,-0.0009176000021398069
0.18333333606521288,-0.0009182000067085029,-0.0009182000067085029
0.18416666941096385,-0.0009187000105157495,-0.0009187000105157495
0.1850000027567148,-0.000919200014322996,-0.000919200014322996
0.1858333361024658,-0.0009197000181302429,-0.0009197000181302429
0.18666666944821672,-0.0009202000219374896,-0.0009202000219374896
0.18750000279396772,-0.0009208000265061856,-0.0009208000265061856
0.18833333613971867,-0.0009212999721057712,-0.0009212999721057712
0.18916666948546965,-0.0009217999759130181,-0.0009217999759130181
0.19000000283122065,-0.0009223999804817141,-0.0009223999804817141
0.1908333361769716,-0.0009230999858118592,-0.0009230999858118592
0.19166666952272257,-0.0009237999911420048,-0.0009237999911420048
0.19250000286847352,-0.0009244999964721501,-0.0009244999964721501
0.1933333362142245,-0.0009254000033251941,-0.0009254000033251941
0.19416666955997544,-0.000926300010178238,-0.000926300010178238
0.19500000290572644,-0.0009272000170312821,-0.0009272000170312821
0.1958333362514774,-0.000928300025407225,-0.000928300025407225
0.19666666959722837,-0.000929499976336956,-0.000929499976336956
0.19750000294297937,-0.000930699985474348,-0.000930699985474348
0.19833333628873032,-0.0009319999953731894,-0.0009319999953731894
0.1991666696344813,-0.00093340000603348,-0.00093340000603348
0.20000000298023224,-0.0009348000166937709,-0.0009348000166937709
0.2008333363259832,-0.0009364000288769603,-0.0009364000288769603
0.20166666967173416,-0.0009379999828524888,-0.0009379999828524888
0.2025000030174851,-0.0009397999965585768,-0.0009397999965585768
0.2033333363632361,-0.000941600010264665,-0.000941600010264665
0.2041666697089871,-0.0009435000247322023,-0.0009435000247322023
0.20500000305473803,-0.000945499981753528,-0.000945499981753528
0.205833336400489,-0.0009474999969825149,-0.0009474999969825149
0.20666666974624,-0.0009497000137344003,-0.0009497000137344003
0.20750000309199096,-0.0009518999722786248,-0.0009518999722786248
0.2083333364377419,-0.0009541999897919596,-0.0009541999897919596
0.20916666978349288,-0.0009565000073052943,-0.0009565000073052943
0.21000000312924383,-0.0009589000255800784,-0.0009589000255800784
0.21083333647499483,-0.0009613999864086509,-0.0009613999864086509
0.21166666982074575,-0.0009639000054448845,-0.0009639000054448845
0.21250000316649675,-0.0009664000244811176,-0.0009664000244811176
0.21333333651224773,-0.0009690999868325888,-0.0009690999868325888
0.21416666985799868,-0.0009717000066302717,-0.0009717000066302717
0.21500000320374965,-0.0009745000279508531,-0.0009745000279508531
0.21583333654950063,-0.0009771999903023243,-0.0009771999903023243
0.2166666698952516,-0.0009800000116229055,-0.0009800000116229055
0.21750000324100255,-0.0009828000329434872,-0.0009828000329434872
0.21833333658675352,-0.0009857000550255182,-0.0009857000550255182
0.21916666993250447,-0.0009884999599307775,-0.0009884999599307775
0.22000000327825547,-0.0009913999820128085,-0.0009913999820128085
0.2208333366240064,-0.000994300004094839,-0.000994300004094839
0.2216666699697574,-0.0009972000261768699,-0.0009972000261768699
0.22250000331550837,-0.00100020004902035,-0.00100020004902035
0.22333333666125935,-0.0010030999546870587,-0.0010030999546870587
0.2241666700070103,-0.001006099977530539,-0.001006099977530539
0.22500000335276127,-0.0010091000003740191,-0.0010091000003740191
0.22583333669851224,-0.0010121000232174993,-0.0010121000232174993
0.2266666700442632,-0.0010151000460609791,-0.0010151000460609791
0.22750000339001417,-0.0010180999524891376,-0.0010180999524891376
0.2283333367357651,-0.001021199976094067,-0.001021199976094067
0.22916667008151612,-0.0010241999989375472,-0.0010241999989375472
0.23000000342726704,-0.0010273000225424767,-0.0010273000225424767
0.23083333677301804,-0.001030400046147406,-0.001030400046147406
0.231666670118769,-0.0010334999533370135,-0.0010334999533370135
0.23250000346452,-0.0010365999769419432,-0.0010365999769419432
0.2333333368102709,-0.001039800001308322,-0.001039800001308322
0.2341666701560219,-0.0010429000249132514,-0.0010429000249132514
0.23500000350177289,-0.00104610004927963,-0.00104610004927963
0.23583333684752383,-0.0010492999572306871,-0.0010492999572306871
0.2366666701932748,-0.0010525999823585153,-0.0010525999823585153
0.23750000353902576,-0.0010559000074863432,-0.0010559000074863432
0.23833333688477676,-0.0010592000326141715,-0.0010592000326141715
0.23916667023052768,-0.0010625000577419996,-0.0010625000577419996
0.24000000357627868,-0.001065799966454506,-0.001065799966454506
0.24083333692202963,-0.0010691999923437832,-0.0010691999923437832
0.24166667026778063,-0.0010726000182330608,-0.0010726000182330608
0.24250000361353155,-0.0010761000448837876,-0.0010761000448837876
0.24333333695928255,-0.0010795999551191926,-0.0010795999551191926
0.24416667030503353,-0.0010830999817699192,-0.0010830999817699192
0.24500000365078448,-0.001086600008420646,-0.001086600008420646
0.24583333699653545,-0.0010902000358328223,-0.0010902000358328223
0.2466666703422864,-0.001093899947591126,-0.001093899947591126
0.2475000036880374,-0.0010975999757647514,-0.0010975999757647514
0.24833333703378835,-0.001101300003938377,-0.001101300003938377
0.24916667037953932,-0.0011051000328734515,-0.0011051000328734515
0.2500000037252903,-0.0011088999453932047,-0.0011088999453932047
0.2508333370710413,-0.0011126999743282795,-0.0011126999743282795
0.25166667041679225,-0.0011167000047862528,-0.0011167000047862528
0.2525000037625432,-0.0011206000344827771,-0.0011206000344827771
